# Data taken from Table A1 of arXiv:1609.04979 (with transition temperature 214 MeV)
# T [MeV] g_*e
1e7 106.75
5e6 106.75
2e6 106.74
1e6 106.72
5e5 106.61
2e5 105.9
1e5 103.53
5e4 97.4
2e4 88.45
1e4 86.22
5e3 85.6
2e3 82.5
1e3 76.34
500 69.26
214 62.49
200 50.75
190 44.01
180 38.27
170 33.47
160 29.51
150 26.31
140 23.77
130 21.76
100 18
50 14.63
20 11.33
10 10.76
5 10.74
2 10.71
1 10.6
0.5 10.16
0.2 7.66
0.1 4.46
0.05 3.39
0.02 3.36
0.01 3.36